# FINAL TIMESERIES OF HAT-P-32 b
# BJD_TDB,Orbital Phase,Flux,Uncertainty,Model,Airmass
2458107.5698575526, -0.06638991035417355, 0.9995214045380962, 0.006594671746168044, 1.0, 1.0004042946561036
2458107.571582998, -0.06558738064224975, 1.0054186213424083, 0.00659471455400744, 1.0, 1.000408899541876
2458107.573666837, -0.06461815695796155, 1.0112777744467116, 0.006594764461466561, 1.0, 1.000414268130475
2458107.57574901, -0.06364970821771648, 1.0039484100744533, 0.006594812540392545, 1.0, 1.0004194400110038
2458107.577830766, -0.06268145332177508, 1.001762193358257, 0.0065948592554242345, 1.0, 1.0004244651660539
2458107.579913806, -0.0617126010821582, 1.0060170013240088, 0.00659490444642769, 1.0, 1.0004293263709108
2458107.5819962914, -0.06074400701283181, 0.9980980368096052, 0.0065949481607298355, 1.0, 1.0004340287175058
2458107.584078476, -0.059775552857941394, 1.0124451382365394, 0.006594990351263719, 1.0, 1.0004385671437817
2458107.586172395, -0.05880164074053376, 1.0020889733252287, 0.006595031339724742, 1.0, 1.0004429762552614
2458107.5882551116, -0.05783293902805775, 0.9957013676263619, 0.006595070537718582, 1.0, 1.0004471927594838
2458107.590337145, -0.056864555046971105, 0.9985383332033371, 0.00659510844835734, 1.0, 1.000451270776773
2458107.592419132, -0.05589619272446589, 1.0019315268747941, 0.006595144858190197, 1.0, 1.0004551873471443
2458107.5945011545, -0.05492781394143878, 1.0048367424444273, 0.006595179904608634, 1.0, 1.0004589572504095
2458107.596583199, -0.053959424762292596, 0.9885485585712556, 0.0065952135547925565, 1.0, 1.0004625769568363
2458107.598664874, -0.05299120755228287, 0.9894149968562503, 0.006595245859892916, 1.0, 1.0004660519693231
2458107.6007466526, -0.052022942260222416, 0.9968798303773876, 0.006595276639759181, 1.0, 1.0004693629099985
2458107.602828015, -0.05105487037929399, 0.9955526249534634, 0.00659530633080538, 1.0, 1.0004725567237926
2458107.6049212976, -0.05008125433469435, 0.9903329154898721, 0.006595334821772452, 1.0, 1.0004756214432464
2458107.6070027063, -0.04911316101177035, 1.0066945414990782, 0.006595361799649464, 1.0, 1.0004785233989137
2458107.60908452, -0.04814487925918798, 1.0081944625202823, 0.0065953875394055145, 1.0, 1.0004812921691946
2458107.611166773, -0.047176393266182864, 0.9999833619670143, 0.006595412021660135, 1.0, 1.0004839256698304
2458107.6132503105, -0.04620730971291645, 0.9962638353013683, 0.006595435164115406, 1.0, 1.0004864150486725
2458107.6153327837, -0.04523872127482123, 0.9960072258844948, 0.006595457089428365, 1.0, 1.0004887735000687
2458107.617415442, -0.04427004663557199, 0.9932746582716341, 0.006595477784006037, 1.0, 1.0004909995622384
2458107.6194977993, -0.04330151212734448, 0.995080175441177, 0.006595497236957254, 1.0, 1.0004930920640105
2458107.6215793923, -0.042333333036438076, 1.001249904895768, 0.006595515378051605, 1.0, 1.000495043451241
2458107.623660546, -0.041365358402540214, 1.0080549314470864, 0.006595532384806485, 1.0, 1.0004968728193016
2458107.625742035, -0.04039722761027034, 0.9995761268192876, 0.006595548244632731, 1.0, 1.0004985788142877
2458107.6278351443, -0.039423692135593574, 0.9990024379378916, 0.0065955628879891095, 1.0, 1.0005001539561187
2458107.6299175476, -0.03845513618537047, 0.9983475083270663, 0.0065955763072420995, 1.0, 1.0005015974239342
2458107.63199958, -0.03748675263745546, 0.995899621415862, 0.006595588551053157, 1.0, 1.0005029144523274
2458107.634081671, -0.03651834201631368, 1.0107464183642367, 0.006595599552629145, 1.0, 1.0005040978567794
2458107.636164121, -0.03554976440750918, 0.9986770323447649, 0.0065956094120603005, 1.0, 1.000505158403866
2458107.638246987, -0.03458099317098681, 1.008459567079013, 0.006595618113439606, 1.0, 1.000506094382681
2458107.6403287537, -0.0336127332935717, 1.011488766312314, 0.006595625585070892, 1.0, 1.000506898081251
2458107.642410845, -0.03264432245584409, 1.0021391821223886, 0.0065956319681158585, 1.0, 1.0005075846839953
2458107.644492368, -0.031676175852809796, 1.0112341271525258, 0.006595637130186933, 1.0, 1.0005081399505302
2458107.6465742276, -0.03070787287481766, 1.0023044795921823, 0.006595641149077273, 1.0, 1.000508572248891
2458107.6486683777, -0.02973385333084619, 0.9975358788158674, 0.00659564404346978, 0.9999720149660495, 1.0005088835887979
2458107.6507493225, -0.028765975727393117, 1.0005799507411992, 0.006595645722071196, 0.999039177868541, 1.0005090641501957
2458107.652832223, -0.027797188463520472, 1.003622185745681, 0.006595646298172159, 0.9973066709513599, 1.0005091261193972
2458107.6549133877, -0.026829208631563073, 1.005348282482733, 0.00659564566967509, 0.9950210539500436, 1.0005090585141265
2458107.656996011, -0.025860550452835696, 1.0065694802626322, 0.006595643938425134, 0.9923381080675117, 1.000508872289505
2458107.659079143, -0.024891655545813435, 0.9738243898486019, 0.006595640990863042, 0.9894089780676094, 1.000508555230326
2458107.661160435, -0.023923616369342954, 0.9818468205908204, 0.006595636918043303, 0.986410010277368, 1.0005081171309596
2458107.663242965, -0.022955001507778405, 0.9776963298311833, 0.006595631701034651, 0.9835726058589294, 1.000507555954969
2458107.6653240602, -0.021987053947107343, 0.9705963731603419, 0.006595625261769621, 0.9814086109473645, 1.0005068633048122
2458107.6674163123, -0.02101391720691445, 0.9725688797328788, 0.0065956176780099076, 0.9802463535698497, 1.000506047544946
2458107.6694975346, -0.020045910518316112, 0.9787744842977354, 0.006595608916552351, 0.9793142111081709, 1.0005051051036908
2458107.671577993, -0.01907825924703882, 0.9883930255954294, 0.006595598995012016, 0.9785191838915129, 1.0005040378756966
2458107.6736591114, -0.018110300857077044, 0.9837659546211953, 0.006595587985657637, 0.9778264175581535, 1.0005028536345184
2458107.6757404725, -0.017142229625906058, 0.9807449973447379, 0.006595575675853332, 0.977216125831424, 1.0005015295074038
2458107.677833465, -0.016168748514268666, 0.9807490894589158, 0.0065955621296570595, 0.9766721224429713, 1.0005000723846444
2458107.679906956, -0.01520433779994304, 0.9706958225788024, 0.006595547532606505, 0.9761923909344126, 1.0004985022237407
2458107.6819993467, -0.014231136517177556, 0.974784141105297, 0.006595531599434736, 0.975760532054087, 1.0004967883391354
2458107.6840801407, -0.013263329087528225, 0.9766465285363759, 0.006595514516274157, 0.975377239522814, 1.0004949507522656
2458107.6861607498, -0.012295607642447165, 0.9709538563111513, 0.006595496232768286, 0.9750352793195396, 1.0004929840461412
2458107.6882421337, -0.011327525798571297, 0.977114327127155, 0.006595476823503306, 0.9747306185811719, 1.0004908962434897
2458107.6903235293, -0.010359438540050087, 0.975127283845351, 0.0065954560434389065, 0.9744601484222155, 1.0004886609856354
2458107.692405457, -0.00939110372394325, 0.9730370254765246, 0.006595434095707867, 0.97422109205376, 1.000486300122672
2458107.6944988198, -0.008417450426583567, 0.9788914419531393, 0.006595410656761008, 0.9740101508447491, 1.0004837788507999
2458107.696579602, -0.007449648411579635, 0.9762944077905771, 0.006595386143970043, 0.9738277760166989, 1.0004811420652782
2458107.698660315, -0.006481878667861984, 0.9773537712953584, 0.0065953603724971345, 0.9736709900687985, 1.0004783698831106
2458107.7007410275, -0.005514109140730167, 0.9705402622898903, 0.006595333434816658, 0.9735384230589411, 1.000475472251123
2458107.702821555, -0.004546425598166565, 0.9798791286832108, 0.006595305060785506, 0.9734289537504537, 1.0004724201100665
2458107.7049145587, -0.0035729392884696065, 0.9826442104417932, 0.006595275186700841, 0.9733411829005955, 1.0004692066069527
2458107.7069952944, -0.0026051589320470747, 0.9701426058436826, 0.006595244137450804, 0.9732755171437226, 1.0004658666888644
2458107.7090767594, -0.001637039402239554, 0.9657000462087137, 0.006595211791036616, 0.9732308339846915, 1.000462387232042
2458107.711195375, -0.000651640656177177, 0.9859060903577298, 0.006595177440876544, 0.9732064356973291, 1.0004586922297487
2458107.713242872, 0.0003006800214154226, 0.973657542335105, 0.006595142923844878, 0.9732028876829165, 1.0004549792716548
2458107.715324047, 0.0012686646182606953, 0.9629178919099282, 0.006595106639258389, 0.9732194307598309, 1.0004510761735912
2458107.717404725, 0.0022364181180422604, 0.9667760173898969, 0.006595068684230164, 0.9732564029876777, 1.0004469933810327
2458107.719497393, 0.0032097482693672075, 0.9732681680827467, 0.006595029078823495, 0.9733145036345816, 1.0004427330512748
2458107.7215779778, 0.004177458451985971, 0.9718390185800247, 0.0065949883124906345, 0.9733937483107331, 1.000438347833612
2458107.7236596397, 0.0051456695975928834, 0.979577205604368, 0.006594946071613002, 0.9734948938153745, 1.0004338039914566
2458107.725740618, 0.006113562795224625, 0.9855227680052175, 0.0065949025003130555, 0.9736187380962134, 1.000429117027188
2458107.727821921, 0.007081606953168784, 0.9732066047293721, 0.006594857261090573, 0.9737663872604608, 1.0004242506349785
2458107.729941474, 0.008067441686475108, 0.9769254566404824, 0.0065948096784699, 0.9739425171003223, 1.0004191321524787
2458107.7319873846, 0.009019024456198788, 0.9755621796614602, 0.006594762052783402, 0.9741386958391625, 1.000414009026613
2458107.734079543, 0.009992117662643019, 0.9750827350488059, 0.006594711870594873, 0.9743677165944832, 1.0004086108845278
2458107.736160105, 0.010959817232556845, 0.9795031738521524, 0.00659466021871253, 0.974626108770125, 1.0004030546337093
2458107.738240366, 0.011927376671448942, 0.9679403153190579, 0.0065946070576833205, 0.9749175710542222, 1.000397336029053
2458107.7403208003, 0.012895016896849687, 0.9592990887113512, 0.006594552462177284, 0.9752452044715064, 1.0003914631018043
2458107.742413017, 0.01386813717652069, 0.9785759836867249, 0.006594495568773682, 0.975614824879565, 1.0003853429709337
2458107.744491958, 0.014835082811215428, 0.9828363392060862, 0.006594437252063252, 0.9760263801296235, 1.0003790697163188
2458107.748655813, 0.016771752010257435, 0.9707667533918153, 0.006594315722096475, 0.9770064866767014, 1.0003659964232026
2458107.750737532, 0.01773998979591951, 0.9735209819129315, 0.006594252030435986, 0.9775900214315827, 1.0003591449184226
2458107.7528184983, 0.018707877362320047, 0.9748829835400854, 0.0065941864801104515, 0.978250453779766, 1.0003520934513148
2458107.754911143, 0.019681196684354252, 0.9823329641687201, 0.006594118604000752, 0.97900960894002, 1.00034479177036
2458107.7569923643, 0.020649202939780953, 0.9688168117724848, 0.0065940493002047545, 0.9798868051634754, 1.0003373364854198
2458107.759073863, 0.021617338063767144, 0.9802954021944418, 0.006593977973186042, 0.9809426419291936, 1.0003296635305654
2458107.7611550153, 0.02258531226449334, 0.9790530637316675, 0.0065939050053814945, 0.9826434404069675, 1.0003218140443235
2458107.7632356114, 0.023553027645171642, 0.9823374077071833, 0.006593829607094456, 0.9853306811884267, 1.0003137030732276
2458107.765326056, 0.024525323815819677, 0.9801791918470761, 0.006593751533510358, 0.9883197466621839, 1.0003053042786052
2458107.7674062476, 0.025492850983425464, 0.9935330319739805, 0.006593671955851269, 0.9912972410049724, 1.0002967436527919
2458107.7694871794, 0.026460722522475777, 0.9984529589129695, 0.006593590533767326, 0.9940890934701861, 1.0002879845804973
2458107.771578145, 0.02743326105264987, 1.0085830227850199, 0.006593505887409363, 0.9965495152576386, 1.0002788786199397
2458107.77365829, 0.02840076656167423, 0.9998295391901758, 0.006593419423072974, 0.9985006078029436, 1.0002695770524825
2458107.775737659, 0.02936791123873217, 0.9953357052964427, 0.006593331110422641, 0.9997611352969603, 1.0002600766124659
2458107.7778180586, 0.030335535220196885, 1.001879605655644, 0.006593240013798987, 1.0, 1.0002502766412196
2458107.7799084573, 0.03130780994884935, 1.0004824619316133, 0.006593145846124954, 1.0, 1.0002401462518336
2458107.781987919, 0.03227499772648429, 0.993842425371146, 0.006593049628512004, 1.0, 1.0002297952902242
2458107.784067161, 0.03324208327561495, 0.992149200521585, 0.0065929513226894625, 1.0, 1.000219219636448
2458107.786158185, 0.034214648879015874, 0.9873417541381561, 0.006592849287000579, 1.0, 1.000208242678423
2458107.7882376006, 0.03518181521465519, 0.9946944517476998, 0.006592745205342902, 1.0, 1.0001970455649898
2458107.7903166804, 0.036148825391922546, 1.0041853574393826, 0.006592638837449527, 1.0, 1.0001856024450009
2458107.792407681, 0.03712137994944692, 0.9882304209364505, 0.0065925284058979995, 1.0, 1.0001737220974758
2458107.7944870726, 0.03808853523920974, 0.9899077738753278, 0.006592415502720003, 1.0, 1.0001615757898143
2458107.7965664305, 0.039055674718208144, 0.9943994369258244, 0.006592300302336949, 1.0, 1.0001491822827229
2458107.798656968, 0.04002801398943323, 0.9990855127933935, 0.006592180661509052, 1.0, 1.0001363109962544
2458107.8007358047, 0.04099491110890552, 0.9876084105942418, 0.00659205925680967, 1.0, 1.00012324987822
2458107.80282581, 0.04196700282254501, 0.9893882115566061, 0.006591933141913693, 1.0, 1.0001096819476016
2458107.804904971, 0.04293405068574402, 0.997954567491438, 0.0065918043744175895, 1.0, 1.0000958285620452
2458107.806983564, 0.04390083453083554, 1.0115900386500696, 0.0065916729046546696, 1.0, 1.0000816843732723
2458107.809074252, 0.04487324375927859, 0.9993402703399257, 0.006591536275824852, 1.0, 1.0000669850587705
2458107.8111529495, 0.04584007611959251, 1.004812483334733, 0.006591396709869672, 1.0, 1.0000519696599381
2458107.8132320293, 0.04680708629685981, 0.9903713804871157, 0.006591254146985314, 1.0, 1.0000366317367961
2458107.8153233654, 0.04777979701275625, 0.9914653917460462, 0.006591106204996772, 1.0, 1.0000207149895595
2458107.817402572, 0.04874686610136503, 1.0007993190296274, 0.006590955011930675, 1.0, 1.0000044483587938
2458107.819481432, 0.04971377405012806, 0.9979100145606585, 0.006590800189840899, 1.0, 0.9999877911744353
2458107.821571784, 0.050686027120199095, 0.9925882496951736, 0.006590639747474359, 1.0, 0.9999705291889165
2458107.823650817, 0.05165301542229922, 1.0056052068034103, 0.006590476338214696, 1.0, 0.999952947869876
2458107.825741169, 0.05262526849237026, 1.0062380120988754, 0.006590306929962918, 1.0, 0.9999347209811112
2458107.8278207006, 0.05359248875787731, 1.0056099717164804, 0.006590133293623007, 1.0, 0.9999160390445438
2458107.8299001846, 0.05455968693163138, 1.004502018550912, 0.006589956009905796, 1.0, 0.9998969645304636
2458107.831990178, 0.05553177323062547, 0.9912873670390577, 0.006589771736152858, 1.0, 0.9998771377781879
2458107.834068968, 0.05649864847493058, 1.003547869984718, 0.006589583107354157, 1.0, 0.9998568422820279
2458107.8361473414, 0.05746533009151783, 0.9966345239527915, 0.006589390008134911, 1.0, 0.9998360656163773
2458107.8382380754, 0.0584377607619565, 0.9973118418351413, 0.006589189139795328, 1.0, 0.9998144528380399
2458107.8403170276, 0.059404711594710724, 1.0022838266324836, 0.006588985002524634, 1.0, 0.999792488137015
2458107.842407426, 0.060376986106777386, 0.99366987552106, 0.006588772542638477, 1.0, 0.9997696277314777
2458107.8444865863, 0.06134403375339059, 1.006538582915169, 0.006588554788970451, 1.0, 0.9997461974994316
2458107.846566013, 0.062311205287089444, 1.0093422659061106, 0.00658833203403968, 1.0, 0.9997222288998732
2458107.848646377, 0.06327881280803227, 1.0005162611515312, 0.006588101379790649, 1.0, 0.9996974100792533
2458107.8507367056, 0.06425105483222682, 1.009514443180329, 0.006587862437463805, 1.0, 0.9996716991796956
2458107.8528165026, 0.06521839855164796, 1.007136837653948, 0.006587618738707882, 1.0, 0.9996454761949108
2458107.8548956164, 0.06618542453967974, 1.0026100354975462, 0.006587366153600004, 1.0, 0.9996182967044301
2458107.856986073, 0.06715772612497317, 0.9951412655753783, 0.006587104754065868, 1.0, 0.99959016841596
2458107.8590705222, 0.06812723375326374, 0.9971940090707113, 0.006586836282249813, 1.0, 0.9995612787660004
2458107.861149555, 0.06909422205536381, 0.9966972465517395, 0.006586559373265106, 1.0, 0.999531480852403
2458107.8632283336, 0.07006109210160938, 1.0093001354657103, 0.006586275403338006, 1.0, 0.9995009227390099
